 VDS(V)  ID(V), VG = 2.0  VDS(V)  ID(V), VG = 4.0  VDS(V)  ID(V), VG = 6.0  VDS(V)  ID(V), VG = 8.0  VDS(V)  ID(V), VG = 10.0  VDS(V)  ID(V), VG = 12.0
    0.1         0.000002     0.1         0.000004     0.1         0.000005     0.1         0.000006     0.1          0.000008     0.1          0.000009
    0.2         0.000004     0.2         0.000007     0.2         0.000010     0.2         0.000013     0.2          0.000015     0.2          0.000018
    0.3         0.000006     0.3         0.000010     0.3         0.000015     0.3         0.000019     0.3          0.000023     0.3          0.000027
    0.4         0.000008     0.4         0.000014     0.4         0.000019     0.4         0.000025     0.4          0.000031     0.4          0.000036
    0.5         0.000010     0.5         0.000017     0.5         0.000024     0.5         0.000031     0.5          0.000038     0.5          0.000045
    0.6         0.000011     0.6         0.000020     0.6         0.000028     0.6         0.000037     0.6          0.000045     0.6          0.000054
    0.7         0.000013     0.7         0.000023     0.7         0.000033     0.7         0.000043     0.7          0.000053     0.7          0.000063
    0.8         0.000015     0.8         0.000026     0.8         0.000037     0.8         0.000049     0.8          0.000060     0.8          0.000071
    0.9         0.000016     0.9         0.000029     0.9         0.000042     0.9         0.000054     0.9          0.000067     0.9          0.000080
    1.0         0.000018     1.0         0.000032     1.0         0.000046     1.0         0.000060     1.0          0.000074     1.0          0.000088
    1.1         0.000019     1.1         0.000035     1.1         0.000050     1.1         0.000066     1.1          0.000081     1.1          0.000097
    1.2         0.000020     1.2         0.000037     1.2         0.000054     1.2         0.000071     1.2          0.000088     1.2          0.000105
    1.3         0.000022     1.3         0.000040     1.3         0.000058     1.3         0.000077     1.3          0.000095     1.3          0.000114
    1.4         0.000023     1.4         0.000043     1.4         0.000062     1.4         0.000082     1.4          0.000102     1.4          0.000122
    1.5         0.000024     1.5         0.000045     1.5         0.000066     1.5         0.000088     1.5          0.000109     1.5          0.000130
    1.6         0.000025     1.6         0.000048     1.6         0.000070     1.6         0.000093     1.6          0.000116     1.6          0.000138
    1.7         0.000026     1.7         0.000050     1.7         0.000074     1.7         0.000098     1.7          0.000122     1.7          0.000146
    1.8         0.000027     1.8         0.000052     1.8         0.000078     1.8         0.000103     1.8          0.000129     1.8          0.000154
    1.9         0.000028     1.9         0.000054     1.9         0.000081     1.9         0.000108     1.9          0.000135     1.9          0.000162
    2.0         0.000028     2.0         0.000057     2.0         0.000085     2.0         0.000113     2.0          0.000142     2.0          0.000170
    2.1         0.000029     2.1         0.000059     2.1         0.000088     2.1         0.000118     2.1          0.000148     2.1          0.000178
    2.2         0.000030     2.2         0.000061     2.2         0.000092     2.2         0.000123     2.2          0.000154     2.2          0.000185
    2.3         0.000030     2.3         0.000063     2.3         0.000095     2.3         0.000128     2.3          0.000160     2.3          0.000193
    2.4         0.000031     2.4         0.000065     2.4         0.000099     2.4         0.000133     2.4          0.000167     2.4          0.000201
    2.5         0.000031     2.5         0.000066     2.5         0.000102     2.5         0.000137     2.5          0.000173     2.5          0.000208
    2.6         0.000031     2.6         0.000068     2.6         0.000105     2.6         0.000142     2.6          0.000179     2.6          0.000215
    2.7         0.000032     2.7         0.000070     2.7         0.000108     2.7         0.000146     2.7          0.000184     2.7          0.000223
    2.8         0.000032     2.8         0.000071     2.8         0.000111     2.8         0.000151     2.8          0.000190     2.8          0.000230
    2.9         0.000032     2.9         0.000073     2.9         0.000114     2.9         0.000155     2.9          0.000196     2.9          0.000237
    3.0         0.000032     3.0         0.000074     3.0         0.000117     3.0         0.000159     3.0          0.000202     3.0          0.000244
    3.1         0.000032     3.1         0.000076     3.1         0.000120     3.1         0.000164     3.1          0.000207     3.1          0.000251
    3.2         0.000032     3.2         0.000077     3.2         0.000122     3.2         0.000168     3.2          0.000213     3.2          0.000258
    3.3         0.000032     3.3         0.000078     3.3         0.000125     3.3         0.000172     3.3          0.000218     3.3          0.000265
    3.4         0.000032     3.4         0.000079     3.4         0.000128     3.4         0.000176     3.4          0.000224     3.4          0.000272
    3.5         0.000032     3.5         0.000081     3.5         0.000130     3.5         0.000180     3.5          0.000229     3.5          0.000279
    3.6         0.000032     3.6         0.000082     3.6         0.000133     3.6         0.000184     3.6          0.000234     3.6          0.000285
    3.7         0.000032     3.7         0.000083     3.7         0.000135     3.7         0.000187     3.7          0.000240     3.7          0.000292
    3.8         0.000032     3.8         0.000083     3.8         0.000137     3.8         0.000191     3.8          0.000245     3.8          0.000299
    3.9         0.000032     3.9         0.000084     3.9         0.000139     3.9         0.000195     3.9          0.000250     3.9          0.000305
    4.0         0.000032     4.0         0.000085     4.0         0.000142     4.0         0.000198     4.0          0.000255     4.0          0.000312
    4.1         0.000032     4.1         0.000086     4.1         0.000144     4.1         0.000202     4.1          0.000260     4.1          0.000318
    4.2         0.000032     4.2         0.000086     4.2         0.000146     4.2         0.000205     4.2          0.000265     4.2          0.000324
    4.3         0.000032     4.3         0.000087     4.3         0.000148     4.3         0.000209     4.3          0.000269     4.3          0.000330
    4.4         0.000032     4.4         0.000087     4.4         0.000150     4.4         0.000212     4.4          0.000274     4.4          0.000336
    4.5         0.000032     4.5         0.000088     4.5         0.000151     4.5         0.000215     4.5          0.000279     4.5          0.000342
    4.6         0.000032     4.6         0.000088     4.6         0.000153     4.6         0.000218     4.6          0.000283     4.6          0.000348
    4.7         0.000032     4.7         0.000088     4.7         0.000155     4.7         0.000221     4.7          0.000288     4.7          0.000354
    4.8         0.000032     4.8         0.000088     4.8         0.000156     4.8         0.000224     4.8          0.000292     4.8          0.000360
    4.9         0.000032     4.9         0.000088     4.9         0.000158     4.9         0.000227     4.9          0.000297     4.9          0.000366
    5.0         0.000032     5.0         0.000088     5.0         0.000159     5.0         0.000230     5.0          0.000301     5.0          0.000372
    5.1         0.000032     5.1         0.000089     5.1         0.000161     5.1         0.000233     5.1          0.000305     5.1          0.000377
    5.2         0.000032     5.2         0.000089     5.2         0.000162     5.2         0.000236     5.2          0.000309     5.2          0.000383
    5.3         0.000032     5.3         0.000089     5.3         0.000163     5.3         0.000238     5.3          0.000313     5.3          0.000388
    5.4         0.000032     5.4         0.000089     5.4         0.000164     5.4         0.000241     5.4          0.000317     5.4          0.000394
    5.5         0.000032     5.5         0.000089     5.5         0.000165     5.5         0.000243     5.5          0.000321     5.5          0.000399
    5.6         0.000032     5.6         0.000089     5.6         0.000167     5.6         0.000246     5.6          0.000325     5.6          0.000404
    5.7         0.000032     5.7         0.000089     5.7         0.000167     5.7         0.000248     5.7          0.000329     5.7          0.000410
    5.8         0.000032     5.8         0.000089     5.8         0.000168     5.8         0.000250     5.8          0.000333     5.8          0.000415
    5.9         0.000032     5.9         0.000089     5.9         0.000169     5.9         0.000253     5.9          0.000336     5.9          0.000420
    6.0         0.000032     6.0         0.000089     6.0         0.000170     6.0         0.000255     6.0          0.000340     6.0          0.000425
    6.1         0.000032     6.1         0.000089     6.1         0.000171     6.1         0.000257     6.1          0.000343     6.1          0.000430
    6.2         0.000032     6.2         0.000089     6.2         0.000171     6.2         0.000259     6.2          0.000347     6.2          0.000435
    6.3         0.000032     6.3         0.000089     6.3         0.000172     6.3         0.000261     6.3          0.000350     6.3          0.000439
    6.4         0.000032     6.4         0.000089     6.4         0.000172     6.4         0.000263     6.4          0.000353     6.4          0.000444
    6.5         0.000032     6.5         0.000089     6.5         0.000173     6.5         0.000265     6.5          0.000357     6.5          0.000449
    6.6         0.000032     6.6         0.000089     6.6         0.000173     6.6         0.000266     6.6          0.000360     6.6          0.000453
    6.7         0.000032     6.7         0.000089     6.7         0.000173     6.7         0.000268     6.7          0.000363     6.7          0.000458
    6.8         0.000032     6.8         0.000089     6.8         0.000173     6.8         0.000270     6.8          0.000366     6.8          0.000462
    6.9         0.000032     6.9         0.000089     6.9         0.000173     6.9         0.000271     6.9          0.000369     6.9          0.000467
    7.0         0.000032     7.0         0.000089     7.0         0.000173     7.0         0.000273     7.0          0.000372     7.0          0.000471
    7.1         0.000032     7.1         0.000089     7.1         0.000173     7.1         0.000274     7.1          0.000374     7.1          0.000475
    7.2         0.000032     7.2         0.000089     7.2         0.000173     7.2         0.000275     7.2          0.000377     7.2          0.000479
    7.3         0.000032     7.3         0.000089     7.3         0.000173     7.3         0.000277     7.3          0.000380     7.3          0.000483
    7.4         0.000032     7.4         0.000089     7.4         0.000173     7.4         0.000278     7.4          0.000382     7.4          0.000487
    7.5         0.000032     7.5         0.000089     7.5         0.000173     7.5         0.000279     7.5          0.000385     7.5          0.000491
    7.6         0.000032     7.6         0.000089     7.6         0.000173     7.6         0.000280     7.6          0.000387     7.6          0.000495
    7.7         0.000032     7.7         0.000089     7.7         0.000173     7.7         0.000281     7.7          0.000390     7.7          0.000499
    7.8         0.000032     7.8         0.000089     7.8         0.000173     7.8         0.000282     7.8          0.000392     7.8          0.000503
    7.9         0.000032     7.9         0.000089     7.9         0.000173     7.9         0.000282     7.9          0.000394     7.9          0.000506
    8.0         0.000032     8.0         0.000089     8.0         0.000173     8.0         0.000283     8.0          0.000396     8.0          0.000510
    8.1         0.000032     8.1         0.000089     8.1         0.000173     8.1         0.000284     8.1          0.000399     8.1          0.000513
    8.2         0.000032     8.2         0.000089     8.2         0.000173     8.2         0.000284     8.2          0.000401     8.2          0.000517
    8.3         0.000032     8.3         0.000089     8.3         0.000173     8.3         0.000285     8.3          0.000403     8.3          0.000520
    8.4         0.000032     8.4         0.000089     8.4         0.000173     8.4         0.000285     8.4          0.000404     8.4          0.000523
    8.5         0.000032     8.5         0.000089     8.5         0.000173     8.5         0.000286     8.5          0.000406     8.5          0.000527
    8.6         0.000032     8.6         0.000089     8.6         0.000173     8.6         0.000286     8.6          0.000408     8.6          0.000530
    8.7         0.000032     8.7         0.000089     8.7         0.000173     8.7         0.000286     8.7          0.000410     8.7          0.000533
    8.8         0.000032     8.8         0.000089     8.8         0.000173     8.8         0.000287     8.8          0.000411     8.8          0.000536
    8.9         0.000032     8.9         0.000089     8.9         0.000173     8.9         0.000287     8.9          0.000413     8.9          0.000539
    9.0         0.000032     9.0         0.000089     9.0         0.000173     9.0         0.000287     9.0          0.000414     9.0          0.000542
    9.1         0.000032     9.1         0.000089     9.1         0.000173     9.1         0.000287     9.1          0.000416     9.1          0.000544
    9.2         0.000032     9.2         0.000089     9.2         0.000173     9.2         0.000287     9.2          0.000417     9.2          0.000547
    9.3         0.000032     9.3         0.000089     9.3         0.000173     9.3         0.000287     9.3          0.000418     9.3          0.000550
    9.4         0.000032     9.4         0.000089     9.4         0.000173     9.4         0.000287     9.4          0.000419     9.4          0.000552
    9.5         0.000032     9.5         0.000089     9.5         0.000173     9.5         0.000287     9.5          0.000420     9.5          0.000555
    9.6         0.000032     9.6         0.000089     9.6         0.000173     9.6         0.000287     9.6          0.000421     9.6          0.000557
    9.7         0.000032     9.7         0.000089     9.7         0.000173     9.7         0.000287     9.7          0.000422     9.7          0.000560
    9.8         0.000032     9.8         0.000089     9.8         0.000173     9.8         0.000287     9.8          0.000423     9.8          0.000562
    9.9         0.000032     9.9         0.000089     9.9         0.000173     9.9         0.000287     9.9          0.000424     9.9          0.000564